wave,flux
3500.0205,15.678134
3500.8274,15.831541
3501.6328,16.111498
3502.4385,16.399792
3503.246,16.60385
3504.052,16.724655
3504.86,16.820074
3505.6665,16.91679
3506.4746,16.972826
3507.2812,16.932314
3508.0881,16.807726
3508.8972,16.68239
3509.7043,16.62319
3510.5137,16.609064
3511.3213,16.55861
3512.131,16.422232
3512.939,16.23171
3513.7473,16.049948
3514.5574,15.893582
3515.366,15.739963
3516.1765,15.601681
3516.9856,15.552615
3517.7964,15.66765
3518.6057,15.948481
3519.4153,16.30589
3520.2268,16.605183
3521.0364,16.738007
3521.8486,16.675127
3522.659,16.470776
3523.471,16.21862
3524.2815,15.989256
3525.0925,15.793674
3525.9053,15.60398
3526.7163,15.41042
3527.5298,15.250345
3528.3413,15.185782
3529.1548,15.266278
3529.9666,15.495455
3530.7788,15.808454
3531.5928,16.097685
3532.4053,16.281187
3533.2197,16.342165
3534.0327,16.31639
3534.8477,16.27169
3535.661,16.284086
3536.4744,16.38408
3537.2898,16.521608
3538.1035,16.616163
3538.9192,16.642458
3539.7334,16.6483
3540.5498,16.692911
3541.3643,16.775843
3542.1787,16.828106
3542.9958,16.786528
3543.8108,16.67699
3544.628,16.599007
3545.4434,16.624302
3546.261,16.730898
3547.077,16.8359
3547.8948,16.87281
3548.711,16.83174
3549.5273,16.745699
3550.3457,16.663258
3551.1626,16.62254
3551.9814,16.618124
3552.7986,16.596096
3553.618,16.502071
3554.4353,16.326605
3555.253,16.103033
3556.0728,15.888118
3556.8909,15.746339
3557.7112,15.714762
3558.5295,15.7645445
3559.3503,15.819066
3560.169,15.8259735
3560.988,15.801871
3561.8093,15.802808
3562.6287,15.864983
3563.4502,15.982576
3564.27,16.121153
3565.0918,16.216522
3565.912,16.172178
3566.7322,15.920425
3567.5547,15.516098
3568.3755,15.132737
3569.1982,14.923672
3570.0193,14.887297
3570.8428,14.889329
3571.6643,14.818469
3572.4858,14.699076
3573.3096,14.642162
3574.1318,14.715289
3574.9558,14.889089
3575.7783,15.087454
3576.6028,15.252044
3577.4255,15.363616
3578.2488,15.425404
3579.0737,15.433792
3579.897,15.369129
3580.7224,15.219072
3581.5464,14.998969
3582.3723,14.742285
3583.1963,14.493793
3584.0205,14.315332
3584.8472,14.250272
3585.6719,14.260436
3586.4985,14.240897
3587.3237,14.126656
3588.151,13.962557
3588.9763,13.851663
3589.802,13.857868
3590.63,13.977947
3591.4558,14.187728
3592.284,14.478469
3593.1104,14.828353
3593.939,15.157439
3594.7656,15.364341
3595.5928,15.431361
3596.4219,15.456462
3597.2493,15.55422
3598.0789,15.747201
3598.9065,15.966707
3599.7363,16.136244
3600.5645,16.23863
3601.3928,16.306868
3602.2234,16.356432
3603.052,16.339626
3603.8828,16.186779
3604.712,15.894442
3605.543,15.548118
3606.3728,15.249027
3607.2024,15.045948
3608.034,14.9390545
3608.864,14.897629
3609.6963,14.856398
3610.5266,14.750916
3611.3594,14.593891
3612.1902,14.483706
3613.023,14.507144
3613.8542,14.648866
3614.6855,14.81488
3615.519,14.938662
3616.3508,15.040347
3617.1848,15.164747
3618.0168,15.283345
3618.851,15.293351
3619.6838,15.116462
3620.5166,14.791807
3621.351,14.477385
3622.1843,14.347808
3623.0198,14.468161
3623.853,14.762662
3624.6887,15.092854
3625.5227,15.354113
3626.3567,15.531688
3627.1929,15.6950655
3628.0273,15.913152
3628.864,16.160341
3629.6987,16.327236
3630.5356,16.312567
3631.371,16.073954
3632.2063,15.622639
3633.044,15.041099
3633.8796,14.500358
3634.7175,14.1769905
3635.554,14.11852
3636.3923,14.228908
3637.2288,14.392412
3638.0654,14.569179
3638.9043,14.772893
3639.7415,15.013319
3640.581,15.279884
3641.4185,15.543236
3642.258,15.754393
3643.096,15.862105
3643.934,15.843069
3644.7742,15.713554
3645.6128,15.515307
3646.4534,15.295096
3647.2922,15.09241
3648.1333,14.927899
3648.9727,14.792288
3649.812,14.667643
3650.6538,14.574043
3651.4937,14.568524
3652.3354,14.687612
3653.1758,14.915991
3654.0183,15.207477
3654.859,15.50773
3655.6997,15.762406
3656.5427,15.937962
3657.3838,16.047077
3658.227,16.136953
3659.0688,16.243427
3659.9126,16.363316
3660.7544,16.46826
3661.5967,16.530443
3662.441,16.535782
3663.2834,16.485384
3664.1282,16.386171
3664.9712,16.247456
3665.8164,16.098879
3666.6597,15.992906
3667.5032,15.959979
3668.3489,15.969654
3669.1926,15.960182
3670.039,15.895455
3670.8833,15.782197
3671.7297,15.666788
3672.5745,15.628875
3673.4192,15.727953
3674.266,15.928087
3675.1113,16.110575
3675.9592,16.185274
3676.8047,16.160538
3677.6526,16.084297
3678.4985,15.960179
3679.347,15.764798
3680.1934,15.515214
3681.0398,15.270497
3681.8884,15.086986
3682.7358,15.003429
3683.585,15.035247
3684.4324,15.151534
3685.282,15.282636
3686.1296,15.359412
3686.978,15.333961
3687.828,15.191054
3688.6763,14.970354
3689.527,14.767546
3690.3757,14.693658
3691.2266,14.814675
3692.0757,15.111614
3692.9253,15.487549
3693.777,15.809162
3694.6265,15.963124
3695.4788,15.919457
3696.3286,15.757175
3697.181,15.6008625
3698.0317,15.522554
3698.882,15.524348
3699.7354,15.598021
3700.5867,15.747081
3701.4397,15.939814
3702.2913,16.084784
3703.1448,16.084108
3703.997,15.899211
3704.849,15.550926
3705.7031,15.082466
3706.5557,14.556957
3707.4106,14.074006
3708.2637,13.74008
3709.1184,13.602233
3709.972,13.624211
3710.8254,13.741537
3711.6812,13.929935
3712.535,14.202808
3713.391,14.557393
3714.2454,14.95659
3715.1016,15.355229
3715.9563,15.704513
3716.811,15.937403
3717.6682,15.9981785
3718.5234,15.890243
3719.3813,15.654629
3720.2366,15.304065
3721.0942,14.826909
3721.9504,14.263147
3722.8071,13.733726
3723.6653,13.381087
3724.522,13.299798
3725.3806,13.507656
3726.2375,13.935988
3727.0972,14.437432
3727.9546,14.835519
3728.812,15.014465
3729.672,15.002775
3730.53,14.948522
3731.3901,14.957322
3732.2488,14.973902
3733.1091,14.86195
3733.968,14.552008
3734.8271,14.076963
3735.688,13.530699
3736.5476,13.039547
3737.4094,12.727536
3738.269,12.6615925
3739.1313,12.834918
3739.9915,13.206452
3740.8518,13.727519
3741.714,14.321479
3742.575,14.870465
3743.4382,15.246603
3744.299,15.366469
3745.1626,15.233083
3746.0244,14.928816
3746.888,14.554648
3747.7502,14.174623
3748.6125,13.811227
3749.4768,13.45952
3750.339,13.106119
3751.204,12.785341
3752.0671,12.614481
3752.9324,12.71483
3753.7957,13.089851
3754.6592,13.620673
3755.525,14.180493
3756.389,14.70689
3757.255,15.149638
3758.1194,15.404983
3758.986,15.366241
3759.8508,15.053094
3760.7158,14.658834
3761.5833,14.424865
3762.4485,14.453101
3763.316,14.653177
3764.182,14.856739
3765.0498,14.954081
3765.9158,14.942031
3766.782,14.877833
3767.651,14.789155
3768.5173,14.644381
3769.3867,14.432164
3770.2537,14.218584
3771.123,14.072864
3771.991,13.992477
3772.8584,13.962589
3773.7285,14.028025
3774.5964,14.232212
3775.467,14.528105
3776.3354,14.8166275
3777.2063,15.054195
3778.0752,15.278798
3778.9443,15.53909
3779.8157,15.834188
3780.6855,16.133627
3781.5574,16.422411
3782.427,16.690838
3783.2993,16.906015
3784.17,17.040554
3785.0403,17.11135
3785.913,17.142197
3786.7842,17.094202
3787.6572,16.883957
3788.5288,16.496367
3789.4023,16.040653
3790.2737,15.656721
3791.146,15.404667
3792.02,15.274835
3792.8923,15.239325
3793.7673,15.236288
3794.6401,15.152572
3795.515,14.894779
3796.3882,14.475978
3797.2615,13.9991255
3798.1372,13.556069
3799.0107,13.163811
3799.887,12.815296
3800.761,12.57557
3801.6372,12.574258
3802.5122,12.882768
3803.3867,13.434073
3804.264,14.079687
3805.1392,14.691404
3806.0164,15.189576
3806.892,15.519964
3807.77,15.657877
3808.6458,15.641171
3809.5222,15.581756
3810.4006,15.613515
3811.277,15.793451
3812.156,16.050983
3813.0327,16.241644
3813.912,16.24407
3814.7896,16.023514
3815.6694,15.640109
3816.5469,15.205658
3817.4248,14.823706
3818.3054,14.562168
3819.1838,14.440432
3820.0645,14.396942
3820.9434,14.305492
3821.8245,14.093969
3822.7036,13.844798
3823.583,13.725669
3824.4646,13.806287
3825.3447,13.977896
3826.2266,14.07342
3827.1067,14.035044
3827.9893,13.933524
3828.87,13.854543
3829.7507,13.81526
3830.634,13.782767
3831.5151,13.720786
3832.3987,13.590549
3833.2803,13.337872
3834.1643,12.93392
3835.0464,12.4364395
3835.9287,11.973499
3836.8132,11.656745
3837.696,11.523383
3838.5806,11.539449
3839.4639,11.636664
3840.349,11.769047
3841.2324,11.950615
3842.1162,12.231071
3843.0024,12.644472
3843.8865,13.180428
3844.7727,13.772126
3845.6575,14.312619
3846.5442,14.716365
3847.4292,14.97049
3848.314,15.123307
3849.2012,15.229045
3850.0872,15.294402
3850.9746,15.281986
3851.8606,15.188275
3852.749,15.097399
3853.6353,15.105229
3854.5217,15.198228
3855.4106,15.264193
3856.2979,15.21949
3857.1868,15.076748
3858.0742,14.8995075
3858.9636,14.734556
3859.8518,14.580356
3860.7393,14.4092245
3861.63,14.2407875
3862.518,14.176949
3863.4087,14.318792
3864.2976,14.648259
3865.1887,15.017856
3866.0776,15.262147
3866.9675,15.316308
3867.8591,15.237072
3868.7488,15.126206
3869.6409,15.040153
3870.531,14.963153
3871.4236,14.8461
3872.3142,14.660998
3873.2053,14.434131
3874.0981,14.245353
3874.9897,14.1928625
3875.883,14.332803
3876.7744,14.620056
3877.6687,14.9053135
3878.5605,15.021966
3879.4531,14.907122
3880.3477,14.654422
3881.2402,14.438697
3882.1353,14.355796
3883.0286,14.342899
3883.924,14.2886095
3884.8171,14.177653
3885.7131,14.053768
3886.607,13.878379
3887.501,13.539688
3888.3975,13.019139
3889.292,12.457917
3890.189,12.034081
3891.084,11.8502865
3891.9812,11.944038
3892.8767,12.3018
3893.7722,12.826432
3894.6697,13.361224
3895.5657,13.786346
3896.4644,14.080892
3897.3606,14.302944
3898.259,14.526887
3899.156,14.773216
3900.0532,14.982713
3900.9526,15.091002
3901.8499,15.12361
3902.7498,15.166838
3903.6475,15.247604
3904.5476,15.299252
3905.4458,15.259362
3906.3442,15.144349
3907.245,15.0175905
3908.144,14.955198
3909.0452,15.036485
3909.944,15.280787
3910.8457,15.597351
3911.7456,15.859627
3912.6455,16.019608
3913.548,16.112728
3914.4482,16.172247
3915.3508,16.188637
3916.2515,16.149836
3917.1545,16.068106
3918.0557,15.956214
3918.9573,15.816065
3919.8606,15.648557
3920.7627,15.445125
3921.6665,15.19037
3922.5688,14.902495
3923.4731,14.650924
3924.376,14.506931
3925.2786,14.481914
3926.184,14.517491
3927.0872,14.519745
3927.9927,14.4077
3928.8965,14.1513605
3929.8025,13.773842
3930.706,13.327451
3931.6104,12.865402
3932.5173,12.416248
3933.4219,11.98217
3934.3289,11.56894
3935.234,11.2182
3936.1416,11.010505
3937.047,11.026474
3937.9526,11.290404
3938.8608,11.7498455
3939.7668,12.309797
3940.6755,12.880507
3941.582,13.394443
3942.491,13.79883
3943.398,14.059368
3944.3052,14.176519
3945.2146,14.194061
3946.1223,14.202345
3947.0322,14.311366
3947.94,14.560145
3948.8503,14.857102
3949.759,15.075231
3950.6675,15.199776
3951.5789,15.317576
3952.4878,15.4713125
3953.3992,15.597091
3954.3086,15.626144
3955.2202,15.591985
3956.1301,15.576919
3957.0427,15.577847
3957.9531,15.514065
3958.8635,15.371061
3959.7764,15.237235
3960.6873,15.164842
3961.6006,15.06435
3962.512,14.785679
3963.4258,14.289797
3964.3374,13.703153
3965.2495,13.18172
3966.1638,12.744476
3967.0764,12.269397
3967.991,11.633773
3968.904,10.837418
3969.8193,10.016359
3970.7322,9.3691435
3971.6458,9.059239
3972.5618,9.14596
3973.4756,9.5724325
3974.392,10.213312
3975.3064,10.949515
3976.223,11.713147
3977.1375,12.472471
3978.0527,13.194206
3978.9697,13.844997
3979.8853,14.421228
3980.803,14.939599
3981.7188,15.38847
3982.637,15.713278
3983.553,15.8689995
3984.4695,15.883241
3985.3884,15.849455
3986.305,15.853991
3987.2246,15.922681
3988.1414,16.036026
3989.0615,16.176546
3989.9788,16.337643
3990.897,16.488522
3991.8171,16.585142
3992.7354,16.63563
3993.656,16.694983
3994.5747,16.779362
3995.496,16.83534
3996.4153,16.800129
3997.3347,16.661777
3998.2566,16.46199
3999.176,16.274446
4000.0981,16.193249
4001.0186,16.29182
4001.9412,16.54556
4002.8616,16.831078
4003.7825,17.034119
4004.706,17.104914
4005.6272,16.996866
4006.5508,16.66674
4007.4724,16.205778
4008.397,15.868762
4009.319,15.859937
4010.2412,16.130217
4011.166,16.457937
4012.0886,16.683617
4013.014,16.804924
4013.9373,16.88956
4014.8625,16.977627
4015.7864,17.072363
4016.71,17.166563
4017.6365,17.241861
4018.5608,17.267239
4019.4873,17.24416
4020.412,17.23364
4021.339,17.277575
4022.2644,17.320087
4023.1897,17.271988
4024.1172,17.115902
4025.0432,16.89672
4025.971,16.66199
4026.8972,16.464405
4027.826,16.37357
4028.7524,16.421051
4029.6816,16.543327
4030.6086,16.603722
4031.536,16.477173
4032.4656,16.149212
4033.393,15.749794
4034.323,15.45369
4035.2515,15.353039
4036.182,15.456826
4037.11,15.757497
4038.0388,16.229465
4038.9702,16.780785
4039.8994,17.255703
4040.8313,17.514475
4041.7607,17.524296
4042.6926,17.37516
4043.6226,17.19229
4044.5527,17.001287
4045.4854,16.686556
4046.4163,16.14582
4047.3494,15.501901
4048.2803,15.087018
4049.2139,15.159832
4050.1453,15.667608
4051.077,16.322992
4052.0115,16.861696
4052.9436,17.16994
4053.8782,17.242363
4054.8108,17.132221
4055.7456,16.92719
4056.6787,16.70672
4057.6118,16.509413
4058.5476,16.335495
4059.4812,16.182854
4060.4172,16.097488
4061.3516,16.14763
4062.2878,16.301147
4063.2227,16.37662
4064.1572,16.189577
4065.0945,15.760221
4066.0295,15.340758
4066.9673,15.190594
4067.9026,15.333918
4068.841,15.599387
4069.7769,15.853896
4070.7134,16.063978
4071.6516,16.158869
4072.5884,16.026386
4073.5276,15.70859
4074.4646,15.459809
4075.4043,15.490846
4076.3418,15.718068
4077.2798,15.864035
4078.2197,15.763779
4079.1582,15.510852
4080.0986,15.350992
4081.0376,15.47579
4081.9785,15.88457
4082.9172,16.394495
4083.857,16.766361
4084.7983,16.857605
4085.738,16.706577
4086.6804,16.486444
4087.6204,16.378027
4088.5632,16.470379
4089.5037,16.72949
4090.4443,17.023048
4091.388,17.198406
4092.3289,17.179766
4093.2725,17.007107
4094.2144,16.786535
4095.1582,16.596762
4096.1,16.416119
4097.045,16.145664
4097.9873,15.734717
4098.93,15.250295
4099.8755,14.782431
4100.819,14.326096
4101.764,13.804272
4102.7075,13.205246
4103.654,12.684125
4104.5977,12.48667
4105.5425,12.734781
4106.4893,13.322359
4107.4336,14.0337515
4108.381,14.696305
4109.326,15.217554
4110.2734,15.566896
4111.2188,15.763233
4112.1646,15.858963
4113.1133,15.919926
4114.059,16.005724
4115.0083,16.146101
4115.955,16.323812
4116.904,16.486715
4117.8506,16.580885
4118.7983,16.564667
4119.748,16.417976
4120.696,16.188004
4121.646,15.999175
4122.594,15.9483185
4123.545,16.013027
4124.493,16.11822
4125.442,16.242764
4126.3936,16.396431
4127.343,16.537365
4128.295,16.587471
4129.2446,16.523859
4130.1963,16.403673
4131.1465,16.288254
4132.097,16.166393
4133.05,15.972436
4134.0005,15.693058
4134.9536,15.4381
4135.9053,15.367779
4136.859,15.553587
4137.8105,15.923784
4138.762,16.32252
4139.717,16.622387
4140.6694,16.788572
4141.624,16.827055
4142.5767,16.70529
4143.532,16.363405
4144.4854,15.815778
4145.439,15.244474
4146.395,14.932292
4147.3486,15.027694
4148.3047,15.404942
4149.2593,15.801577
4150.216,16.042997
4151.171,16.113504
4152.1255,16.091934
4153.083,16.058893
4154.0386,16.03043
4154.9966,15.968429
4155.9526,15.855811
4156.911,15.738211
4157.867,15.683554
4158.8237,15.727122
4159.782,15.867908
4160.7397,16.080471
4161.6987,16.314995
4162.6567,16.524818
4163.616,16.701277
4164.5737,16.847939
4165.532,16.929781
4166.4927,16.894878
4167.451,16.739239
4168.412,16.514465
4169.371,16.299164
4170.3325,16.175016
4171.292,16.159712
4172.254,16.146046
4173.214,15.984886
4174.174,15.658743
4175.1367,15.326515
4176.0967,15.168258
4177.0596,15.215889
4178.0205,15.362088
4178.984,15.499537
4179.9453,15.612393
4180.907,15.738046
4181.871,15.8654785
4182.833,15.915179
4183.798,15.847601
4184.7603,15.743561
4185.725,15.717994
4186.688,15.773685
4187.6514,15.785855
4188.6167,15.648523
4189.5806,15.430403
4190.5464,15.329177
4191.5107,15.441353
4192.4775,15.666076
4193.442,15.8759775
4194.4062,16.057287
4195.3735,16.208576
4196.339,16.230341
4197.3066,16.03013
4198.272,15.657428
4199.24,15.24896
4200.206,14.910851
4201.1724,14.699236
4202.141,14.625197
4203.108,14.646422
4204.077,14.729896
4205.0444,14.908148
4206.0137,15.208325
4206.9814,15.578728
4207.949,15.935578
4208.9194,16.225124
4209.888,16.414852
4210.859,16.479803
4211.827,16.43997
4212.7983,16.383402
4213.768,16.386103
4214.7373,16.405811
4215.709,16.314487
4216.6787,16.053797
4217.6514,15.737842
4218.6216,15.5799055
4219.594,15.693942
4220.5654,15.991813
4221.536,16.293964
4222.51,16.470684
4223.481,16.450459
4224.4546,16.18784
4225.427,15.679255
4226.401,14.974368
4227.3735,14.179216
4228.3457,13.495094
4229.321,13.203754
4230.294,13.485166
4231.2695,14.219611
4232.2427,15.04944
4233.2188,15.643361
4234.1924,15.869426
4235.1665,15.794941
4236.143,15.588881
4237.1177,15.386848
4238.0947,15.241864
4239.07,15.182526
4240.0474,15.225404
4241.0225,15.345233
4241.998,15.512623
4242.9766,15.722005
4243.9526,15.951517
4244.9316,16.166431
4245.9077,16.357452
4246.8867,16.494991
4247.864,16.485512
4248.8438,16.262003
4249.821,15.877883
4250.799,15.456279
4251.779,15.106789
4252.757,14.923113
4253.7373,14.947691
4254.7163,15.076338
4255.6973,15.130993
4256.6763,15.098207
4257.6553,15.155967
4258.637,15.390814
4259.617,15.619161
4260.599,15.586463
4261.5796,15.277087
4262.562,14.957135
4263.543,14.933962
4264.5234,15.291179
4265.507,15.840751
4266.4883,16.314808
4267.472,16.564608
4268.4536,16.574356
4269.438,16.378988
4270.4204,16.021688
4271.403,15.5324955
4272.387,14.936564
4273.3706,14.332847
4274.356,13.906585
4275.3394,13.778348
4276.325,13.914206
4277.309,14.245943
4278.293,14.747668
4279.2793,15.325429
4280.264,15.770202
4281.251,15.910432
4282.2354,15.770309
4283.223,15.542009
4284.2085,15.405951
4285.1943,15.393759
4286.182,15.409825
4287.1685,15.351008
4288.157,15.20093
4289.1436,14.998128
4290.133,14.738945
4291.1196,14.411431
4292.1064,14.1275215
4293.0967,14.082898
4294.084,14.329885
4295.074,14.686456
4296.0625,14.9248705
4297.0527,14.975396
4298.0415,14.884087
4299.0303,14.654784
4300.0215,14.248058
4301.011,13.7125435
4302.003,13.225919
4302.992,12.964853
4303.9844,12.9536295
4304.975,13.077885
4305.965,13.20815
4306.958,13.2526865
4307.9487,13.152816
4308.9424,12.914096
4309.9336,12.640672
4310.9272,12.497469
4311.919,12.598179
4312.9106,12.925628
4313.906,13.379215
4314.898,13.8807
4315.893,14.425577
4316.8857,15.0611925
4317.8813,15.796556
4318.875,16.506033
4319.868,16.9858
4320.8643,17.138353
4321.8584,17.030622
4322.855,16.766636
4323.849,16.369495
4324.8467,15.792025
4325.8413,15.039105
4326.839,14.294953
4327.8345,13.889166
4328.8296,14.06679
4329.828,14.755278
4330.824,15.585797
4331.8228,16.192326
4332.8193,16.477722
4333.8184,16.573284
4334.8154,16.613186
4335.813,16.609886
4336.8125,16.47481
4337.8105,16.077032
4338.8105,15.3421135
4339.8086,14.36429
4340.8096,13.383804
4341.808,12.654603
4342.807,12.368628
4343.8086,12.59526
4344.8076,13.197957
4345.8096,13.91552
4346.8096,14.572129
4347.8115,15.127889
4348.8115,15.58708
4349.812,15.956522
4350.8154,16.205246
4351.816,16.212896
4352.82,15.891322
4353.8213,15.401276
4354.825,15.095495
4355.8267,15.181125
4356.829,15.5551815
4357.8335,15.987987
4358.836,16.32074
4359.8413,16.484133
4360.844,16.501331
4361.8496,16.504553
4362.8535,16.621359
4363.857,16.834797
4364.8633,17.039297
4365.8677,17.186232
4366.874,17.268599
4367.879,17.227388
4368.8857,17.014633
4369.891,16.716867
4370.8965,16.49263
4371.9043,16.403114
4372.91,16.380695
4373.9185,16.319721
4374.925,16.142122
4375.9336,15.848014
4376.94,15.565784
4377.9473,15.488432
4378.9565,15.690111
4379.964,16.025875
4380.974,16.248514
4381.982,16.192265
4382.992,15.80891
4384.0005,15.115523
4385.0093,14.253684
4386.0205,13.569669
4387.0293,13.427463
4388.041,13.856923
4389.0503,14.50652
4390.0625,14.993435
4391.0723,15.208815
4392.0825,15.284133
4393.0957,15.382067
4394.106,15.551111
4395.119,15.724223
4396.1304,15.842186
4397.144,15.964328
4398.156,16.196081
4399.1675,16.503521
4400.182,16.69276
4401.1943,16.618227
4402.209,16.349531
4403.2217,16.073723
4404.2373,15.8461075
4405.2505,15.533872
4406.266,15.081361
4407.28,14.701996
4408.294,14.64722
4409.31,14.911525
4410.3247,15.331151
4411.342,15.821303
4412.3564,16.347198
4413.374,16.788439
4414.389,16.966478
4415.405,16.772655
4416.423,16.285772
4417.439,15.802166
4418.4575,15.653152
4419.474,15.933046
4420.493,16.454203
4421.5103,16.926184
4422.5273,17.128727
4423.547,17.017292
4424.565,16.745718
4425.585,16.52991
4426.603,16.456207
